Sample:	'BR630(EM)
File name:	13011499.FDS
Run Date:	19:10:20, 11/26/2018
Operator:	mse
Comment:	'

Instrument
Model:	F-7000 FL Spectrophotometer
Serial Number:	1912-020
ROM Version:	5J14000 03

Instrument Parameters
Measurement type:	Wavelength scan
Scan mode:	Emission
Data mode:	Fluorescence
EX WL:	452.0 nm
EM  Start WL:	550.0 nm
EM  End WL:	700.0 nm
Scan speed:	240 nm/min
Delay:	0.0 s
EX Slit:	1.0 nm
EM Slit:	2.5 nm
PMT Voltage:	550 V
Response:	0.002 s
Corrected spectra:	On
Shutter control:	Off

Instrumental Response
EX (200 to 500nm)  Slit:5.0/20.0nm  PMT Voltage:400V
EM (200 to 500nm)  Slit:5.0/20.0nm  PMT Voltage:250V
EM (500 to 900nm)  Slit:---/5.0nm  PMT Voltage:400V
EX (500 to 900nm)  Slit:5.0/5.0nm  PMT Voltage:350V

Peak integration
Integration method:	Rectangular
Sensitivity:	1
Threshold:	1.000

Peaks
No.	Start(nm)	Apex(nm)	End(nm)	Height(Data)	Area(Data*nm)	Valley(nm)	Valley(Data)
1	550.0	587.8	593.2	26.48	280.519	593.2	18.13
2	593.2	598.4	600.4	77.92	340.698	600.4	57.68
3	600.4	609.4	611.0	716.0	2919.208	611.0	562.5
4	611.0	613.8	618.2	 1739	7071.363	618.2	368.5
5	618.2	619.8	622.4	395.7	1656.621	622.4	355.6
6	622.4	631.4	633.8	 4547	20188.318	633.8	 2200
7	633.8	635.6	642.4	 2896	10592.989	642.4	94.73
8	642.4	648.2	665.6	798.9	4390.994	665.6	13.26
9	665.6	671.0	700.0	45.78	354.069	700.0	-0.284

Data Points
nm	Data
550.0	0.873
551.0	0.772
552.0	0.773
553.0	0.768
554.0	0.798
555.0	0.817
556.0	1.005
557.0	0.744
558.0	0.826
559.0	0.972
560.0	0.839
561.0	1.207
562.0	1.102
563.0	1.220
564.0	1.080
565.0	1.463
566.0	1.442
567.0	1.131
568.0	1.742
569.0	1.810
570.0	1.736
571.0	2.087
572.0	2.024
573.0	1.812
574.0	2.092
575.0	1.835
576.0	1.836
577.0	2.058
578.0	2.436
579.0	3.417
580.0	4.803
581.0	6.875
582.0	9.035
583.0	10.99
584.0	15.61
585.0	18.67
586.0	22.24
587.0	24.60
588.0	25.76
589.0	23.11
590.0	21.32
591.0	19.74
592.0	20.38
593.0	18.48
594.0	18.76
595.0	21.85
596.0	30.78
597.0	50.85
598.0	74.38
599.0	75.96
600.0	62.69
601.0	58.33
602.0	61.57
603.0	70.73
604.0	83.13
605.0	97.72
606.0	133.3
607.0	235.8
608.0	476.5
609.0	697.4
610.0	660.2
611.0	562.5
612.0	840.5
613.0	 1459
614.0	 1739
615.0	 1288
616.0	699.9
617.0	425.5
618.0	369.6
619.0	385.2
620.0	392.4
621.0	375.9
622.0	359.5
623.0	365.0
624.0	408.4
625.0	456.5
626.0	516.4
627.0	634.3
628.0	908.2
629.0	 1587
630.0	 3024
631.0	 4389
632.0	 4157
633.0	 2806
634.0	 2222
635.0	 2706
636.0	 2787
637.0	 1819
638.0	792.3
639.0	313.1
640.0	170.4
641.0	118.2
642.0	97.86
643.0	96.65
644.0	116.3
645.0	172.9
646.0	305.0
647.0	570.6
648.0	781.2
649.0	700.3
650.0	409.6
651.0	218.9
652.0	161.4
653.0	154.4
654.0	127.6
655.0	99.95
656.0	83.54
657.0	73.51
658.0	63.15
659.0	49.43
660.0	43.79
661.0	42.45
662.0	35.10
663.0	22.79
664.0	17.46
665.0	13.55
666.0	15.01
667.0	16.00
668.0	22.03
669.0	28.79
670.0	39.86
671.0	45.78
672.0	42.42
673.0	30.90
674.0	21.51
675.0	16.31
676.0	11.25
677.0	9.386
678.0	8.005
679.0	7.779
680.0	6.619
681.0	4.224
682.0	3.734
683.0	4.066
684.0	2.495
685.0	2.356
686.0	2.592
687.0	2.780
688.0	2.436
689.0	2.002
690.0	1.413
691.0	1.764
692.0	1.400
693.0	1.497
694.0	0.634
695.0	1.512
696.0	0.198
697.0	0.277
698.0	-0.196
699.0	-0.092
700.0	-0.284

